Frequency (Hz),dB (Relative)
20,-0.24000
21,0.25700
22,0.75400
23,1.25100
24,1.74800
25,2.24500
26,2.74200
27,3.23900
28,3.73600
29,4.23300
30,4.73000
31,5.14800
32,5.56600
33,5.98400
34,6.40200
35,6.82000
36,7.23800
37,7.65600
38,8.07400
39,8.49200
40,8.91000
41,8.84800
42,8.78600
43,8.72400
44,8.66200
45,8.60000
46,8.53800
47,8.47600
48,8.41400
49,8.35200
50,8.29000
51,8.15100
52,8.01200
53,7.87300
54,7.73400
55,7.59500
56,7.45600
57,7.31700
58,7.17800
59,7.03900
60,6.90000
61,6.96200
62,7.02400
63,7.08600
64,7.14800
65,7.21000
66,7.27200
67,7.33400
68,7.39600
69,7.45800
70,7.52000
71,7.58200
72,7.64400
73,7.70600
74,7.76800
75,7.83000
76,7.89200
77,7.95400
78,8.01600
79,8.07800
80,8.14000
81,8.06200
82,7.98400
83,7.90600
84,7.82800
85,7.75000
86,7.67200
87,7.59400
88,7.51600
89,7.43800
90,7.36000
91,7.20500
92,7.05000
93,6.89500
94,6.74000
95,6.58500
96,6.43000
97,6.27500
98,6.12000
99,5.96500
100,5.81000
101,5.70760
102,5.60520
103,5.50280
104,5.40040
105,5.29800
106,5.19560
107,5.09320
108,4.99080
109,4.88840
110,4.78600
111,4.68360
112,4.58120
113,4.47880
114,4.37640
115,4.27400
116,4.17160
117,4.06920
118,3.96680
119,3.86440
120,3.76200
121,3.65960
122,3.55720
123,3.45480
124,3.35240
125,3.25000
126,3.14760
127,3.04520
128,2.94280
129,2.84040
130,2.73800
131,2.63560
132,2.53320
133,2.43080
134,2.32840
135,2.22600
136,2.12360
137,2.02120
138,1.91880
139,1.81640
140,1.71400
141,1.61160
142,1.50920
143,1.40680
144,1.30440
145,1.20200
146,1.09960
147,0.99720
148,0.89480
149,0.79240
150,0.69000
151,0.67920
152,0.66840
153,0.65760
154,0.64680
155,0.63600
156,0.62520
157,0.61440
158,0.60360
159,0.59280
160,0.58200
161,0.57120
162,0.56040
163,0.54960
164,0.53880
165,0.52800
166,0.51720
167,0.50640
168,0.49560
169,0.48480
170,0.47400
171,0.46320
172,0.45240
173,0.44160
174,0.43080
175,0.42000
176,0.40920
177,0.39840
178,0.38760
179,0.37680
180,0.36600
181,0.35520
182,0.34440
183,0.33360
184,0.32280
185,0.31200
186,0.30120
187,0.29040
188,0.27960
189,0.26880
190,0.25800
191,0.24720
192,0.23640
193,0.22560
194,0.21480
195,0.20400
196,0.19320
197,0.18240
198,0.17160
199,0.16080
200,0.15000
201,0.15540
202,0.16080
203,0.16620
204,0.17160
205,0.17700
206,0.18240
207,0.18780
208,0.19320
209,0.19860
210,0.20400
211,0.20940
212,0.21480
213,0.22020
214,0.22560
215,0.23100
216,0.23640
217,0.24180
218,0.24720
219,0.25260
220,0.25800
221,0.26340
222,0.26880
223,0.27420
224,0.27960
225,0.28500
226,0.29040
227,0.29580
228,0.30120
229,0.30660
230,0.31200
231,0.31740
232,0.32280
233,0.32820
234,0.33360
235,0.33900
236,0.34440
237,0.34980
238,0.35520
239,0.36060
240,0.36600
241,0.37140
242,0.37680
243,0.38220
244,0.38760
245,0.39300
246,0.39840
247,0.40380
248,0.40920
249,0.41460
250,0.42000
251,0.42540
252,0.43080
253,0.43620
254,0.44160
255,0.44700
256,0.45240
257,0.45780
258,0.46320
259,0.46860
260,0.47400
261,0.47940
262,0.48480
263,0.49020
264,0.49560
265,0.50100
266,0.50640
267,0.51180
268,0.51720
269,0.52260
270,0.52800
271,0.53340
272,0.53880
273,0.54420
274,0.54960
275,0.55500
276,0.56040
277,0.56580
278,0.57120
279,0.57660
280,0.58200
281,0.58740
282,0.59280
283,0.59820
284,0.60360
285,0.60900
286,0.61440
287,0.61980
288,0.62520
289,0.63060
290,0.63600
291,0.64140
292,0.64680
293,0.65220
294,0.65760
295,0.66300
296,0.66840
297,0.67380
298,0.67920
299,0.68460
300,0.69000
301,0.67140
302,0.65280
303,0.63420
304,0.61560
305,0.59700
306,0.57840
307,0.55980
308,0.54120
309,0.52260
310,0.50400
311,0.48540
312,0.46680
313,0.44820
314,0.42960
315,0.41100
316,0.39240
317,0.37380
318,0.35520
319,0.33660
320,0.31800
321,0.29940
322,0.28080
323,0.26220
324,0.24360
325,0.22500
326,0.20640
327,0.18780
328,0.16920
329,0.15060
330,0.13200
331,0.11340
332,0.09480
333,0.07620
334,0.05760
335,0.03900
336,0.02040
337,0.00180
338,-0.01680
339,-0.03540
340,-0.05400
341,-0.07260
342,-0.09120
343,-0.10980
344,-0.12840
345,-0.14700
346,-0.16560
347,-0.18420
348,-0.20280
349,-0.22140
350,-0.24000
351,-0.25860
352,-0.27720
353,-0.29580
354,-0.31440
355,-0.33300
356,-0.35160
357,-0.37020
358,-0.38880
359,-0.40740
360,-0.42600
361,-0.44460
362,-0.46320
363,-0.48180
364,-0.50040
365,-0.51900
366,-0.53760
367,-0.55620
368,-0.57480
369,-0.59340
370,-0.61200
371,-0.63060
372,-0.64920
373,-0.66780
374,-0.68640
375,-0.70500
376,-0.72360
377,-0.74220
378,-0.76080
379,-0.77940
380,-0.79800
381,-0.81660
382,-0.83520
383,-0.85380
384,-0.87240
385,-0.89100
386,-0.90960
387,-0.92820
388,-0.94680
389,-0.96540
390,-0.98400
391,-1.00260
392,-1.02120
393,-1.03980
394,-1.05840
395,-1.07700
396,-1.09560
397,-1.11420
398,-1.13280
399,-1.15140
400,-1.17000
401,-1.16220
402,-1.15440
403,-1.14660
404,-1.13880
405,-1.13100
406,-1.12320
407,-1.11540
408,-1.10760
409,-1.09980
410,-1.09200
411,-1.08420
412,-1.07640
413,-1.06860
414,-1.06080
415,-1.05300
416,-1.04520
417,-1.03740
418,-1.02960
419,-1.02180
420,-1.01400
421,-1.00620
422,-0.99840
423,-0.99060
424,-0.98280
425,-0.97500
426,-0.96720
427,-0.95940
428,-0.95160
429,-0.94380
430,-0.93600
431,-0.92820
432,-0.92040
433,-0.91260
434,-0.90480
435,-0.89700
436,-0.88920
437,-0.88140
438,-0.87360
439,-0.86580
440,-0.85800
441,-0.85020
442,-0.84240
443,-0.83460
444,-0.82680
445,-0.81900
446,-0.81120
447,-0.80340
448,-0.79560
449,-0.78780
450,-0.78000
451,-0.77220
452,-0.76440
453,-0.75660
454,-0.74880
455,-0.74100
456,-0.73320
457,-0.72540
458,-0.71760
459,-0.70980
460,-0.70200
461,-0.69420
462,-0.68640
463,-0.67860
464,-0.67080
465,-0.66300
466,-0.65520
467,-0.64740
468,-0.63960
469,-0.63180
470,-0.62400
471,-0.61620
472,-0.60840
473,-0.60060
474,-0.59280
475,-0.58500
476,-0.57720
477,-0.56940
478,-0.56160
479,-0.55380
480,-0.54600
481,-0.53820
482,-0.53040
483,-0.52260
484,-0.51480
485,-0.50700
486,-0.49920
487,-0.49140
488,-0.48360
489,-0.47580
490,-0.46800
491,-0.46020
492,-0.45240
493,-0.44460
494,-0.43680
495,-0.42900
496,-0.42120
497,-0.41340
498,-0.40560
499,-0.39780
500,-0.39000
501,-0.38460
502,-0.37920
503,-0.37380
504,-0.36840
505,-0.36300
506,-0.35760
507,-0.35220
508,-0.34680
509,-0.34140
510,-0.33600
511,-0.33060
512,-0.32520
513,-0.31980
514,-0.31440
515,-0.30900
516,-0.30360
517,-0.29820
518,-0.29280
519,-0.28740
520,-0.28200
521,-0.27660
522,-0.27120
523,-0.26580
524,-0.26040
525,-0.25500
526,-0.24960
527,-0.24420
528,-0.23880
529,-0.23340
530,-0.22800
531,-0.22260
532,-0.21720
533,-0.21180
534,-0.20640
535,-0.20100
536,-0.19560
537,-0.19020
538,-0.18480
539,-0.17940
540,-0.17400
541,-0.16860
542,-0.16320
543,-0.15780
544,-0.15240
545,-0.14700
546,-0.14160
547,-0.13620
548,-0.13080
549,-0.12540
550,-0.12000
551,-0.11460
552,-0.10920
553,-0.10380
554,-0.09840
555,-0.09300
556,-0.08760
557,-0.08220
558,-0.07680
559,-0.07140
560,-0.06600
561,-0.06060
562,-0.05520
563,-0.04980
564,-0.04440
565,-0.03900
566,-0.03360
567,-0.02820
568,-0.02280
569,-0.01740
570,-0.01200
571,-0.00660
572,-0.00120
573,0.00420
574,0.00960
575,0.01500
576,0.02040
577,0.02580
578,0.03120
579,0.03660
580,0.04200
581,0.04740
582,0.05280
583,0.05820
584,0.06360
585,0.06900
586,0.07440
587,0.07980
588,0.08520
589,0.09060
590,0.09600
591,0.10140
592,0.10680
593,0.11220
594,0.11760
595,0.12300
596,0.12840
597,0.13380
598,0.13920
599,0.14460
600,0.15000
601,0.15160
602,0.15320
603,0.15480
604,0.15640
605,0.15800
606,0.15960
607,0.16120
608,0.16280
609,0.16440
610,0.16600
611,0.16760
612,0.16920
613,0.17080
614,0.17240
615,0.17400
616,0.17560
617,0.17720
618,0.17880
619,0.18040
620,0.18200
621,0.18360
622,0.18520
623,0.18680
624,0.18840
625,0.19000
626,0.19160
627,0.19320
628,0.19480
629,0.19640
630,0.19800
631,0.19960
632,0.20120
633,0.20280
634,0.20440
635,0.20600
636,0.20760
637,0.20920
638,0.21080
639,0.21240
640,0.21400
641,0.21560
642,0.21720
643,0.21880
644,0.22040
645,0.22200
646,0.22360
647,0.22520
648,0.22680
649,0.22840
650,0.23000
651,0.23160
652,0.23320
653,0.23480
654,0.23640
655,0.23800
656,0.23960
657,0.24120
658,0.24280
659,0.24440
660,0.24600
661,0.24760
662,0.24920
663,0.25080
664,0.25240
665,0.25400
666,0.25560
667,0.25720
668,0.25880
669,0.26040
670,0.26200
671,0.26360
672,0.26520
673,0.26680
674,0.26840
675,0.27000
676,0.27160
677,0.27320
678,0.27480
679,0.27640
680,0.27800
681,0.27960
682,0.28120
683,0.28280
684,0.28440
685,0.28600
686,0.28760
687,0.28920
688,0.29080
689,0.29240
690,0.29400
691,0.29560
692,0.29720
693,0.29880
694,0.30040
695,0.30200
696,0.30360
697,0.30520
698,0.30680
699,0.30840
700,0.31000
701,0.30610
702,0.30220
703,0.29830
704,0.29440
705,0.29050
706,0.28660
707,0.28270
708,0.27880
709,0.27490
710,0.27100
711,0.26710
712,0.26320
713,0.25930
714,0.25540
715,0.25150
716,0.24760
717,0.24370
718,0.23980
719,0.23590
720,0.23200
721,0.22810
722,0.22420
723,0.22030
724,0.21640
725,0.21250
726,0.20860
727,0.20470
728,0.20080
729,0.19690
730,0.19300
731,0.18910
732,0.18520
733,0.18130
734,0.17740
735,0.17350
736,0.16960
737,0.16570
738,0.16180
739,0.15790
740,0.15400
741,0.15010
742,0.14620
743,0.14230
744,0.13840
745,0.13450
746,0.13060
747,0.12670
748,0.12280
749,0.11890
750,0.11500
751,0.11110
752,0.10720
753,0.10330
754,0.09940
755,0.09550
756,0.09160
757,0.08770
758,0.08380
759,0.07990
760,0.07600
761,0.07210
762,0.06820
763,0.06430
764,0.06040
765,0.05650
766,0.05260
767,0.04870
768,0.04480
769,0.04090
770,0.03700
771,0.03310
772,0.02920
773,0.02530
774,0.02140
775,0.01750
776,0.01360
777,0.00970
778,0.00580
779,0.00190
780,-0.00200
781,-0.00590
782,-0.00980
783,-0.01370
784,-0.01760
785,-0.02150
786,-0.02540
787,-0.02930
788,-0.03320
789,-0.03710
790,-0.04100
791,-0.04490
792,-0.04880
793,-0.05270
794,-0.05660
795,-0.06050
796,-0.06440
797,-0.06830
798,-0.07220
799,-0.07610
800,-0.08000
801,-0.08160
802,-0.08320
803,-0.08480
804,-0.08640
805,-0.08800
806,-0.08960
807,-0.09120
808,-0.09280
809,-0.09440
810,-0.09600
811,-0.09760
812,-0.09920
813,-0.10080
814,-0.10240
815,-0.10400
816,-0.10560
817,-0.10720
818,-0.10880
819,-0.11040
820,-0.11200
821,-0.11360
822,-0.11520
823,-0.11680
824,-0.11840
825,-0.12000
826,-0.12160
827,-0.12320
828,-0.12480
829,-0.12640
830,-0.12800
831,-0.12960
832,-0.13120
833,-0.13280
834,-0.13440
835,-0.13600
836,-0.13760
837,-0.13920
838,-0.14080
839,-0.14240
840,-0.14400
841,-0.14560
842,-0.14720
843,-0.14880
844,-0.15040
845,-0.15200
846,-0.15360
847,-0.15520
848,-0.15680
849,-0.15840
850,-0.16000
851,-0.16160
852,-0.16320
853,-0.16480
854,-0.16640
855,-0.16800
856,-0.16960
857,-0.17120
858,-0.17280
859,-0.17440
860,-0.17600
861,-0.17760
862,-0.17920
863,-0.18080
864,-0.18240
865,-0.18400
866,-0.18560
867,-0.18720
868,-0.18880
869,-0.19040
870,-0.19200
871,-0.19360
872,-0.19520
873,-0.19680
874,-0.19840
875,-0.20000
876,-0.20160
877,-0.20320
878,-0.20480
879,-0.20640
880,-0.20800
881,-0.20960
882,-0.21120
883,-0.21280
884,-0.21440
885,-0.21600
886,-0.21760
887,-0.21920
888,-0.22080
889,-0.22240
890,-0.22400
891,-0.22560
892,-0.22720
893,-0.22880
894,-0.23040
895,-0.23200
896,-0.23360
897,-0.23520
898,-0.23680
899,-0.23840
900,-0.24000
901,-0.23690
902,-0.23380
903,-0.23070
904,-0.22760
905,-0.22450
906,-0.22140
907,-0.21830
908,-0.21520
909,-0.21210
910,-0.20900
911,-0.20590
912,-0.20280
913,-0.19970
914,-0.19660
915,-0.19350
916,-0.19040
917,-0.18730
918,-0.18420
919,-0.18110
920,-0.17800
921,-0.17490
922,-0.17180
923,-0.16870
924,-0.16560
925,-0.16250
926,-0.15940
927,-0.15630
928,-0.15320
929,-0.15010
930,-0.14700
931,-0.14390
932,-0.14080
933,-0.13770
934,-0.13460
935,-0.13150
936,-0.12840
937,-0.12530
938,-0.12220
939,-0.11910
940,-0.11600
941,-0.11290
942,-0.10980
943,-0.10670
944,-0.10360
945,-0.10050
946,-0.09740
947,-0.09430
948,-0.09120
949,-0.08810
950,-0.08500
951,-0.08190
952,-0.07880
953,-0.07570
954,-0.07260
955,-0.06950
956,-0.06640
957,-0.06330
958,-0.06020
959,-0.05710
960,-0.05400
961,-0.05090
962,-0.04780
963,-0.04470
964,-0.04160
965,-0.03850
966,-0.03540
967,-0.03230
968,-0.02920
969,-0.02610
970,-0.02300
971,-0.01990
972,-0.01680
973,-0.01370
974,-0.01060
975,-0.00750
976,-0.00440
977,-0.00130
978,0.00180
979,0.00490
980,0.00800
981,0.01110
982,0.01420
983,0.01730
984,0.02040
985,0.02350
986,0.02660
987,0.02970
988,0.03280
989,0.03590
990,0.03900
991,0.04210
992,0.04520
993,0.04830
994,0.05140
995,0.05450
996,0.05760
997,0.06070
998,0.06380
999,0.06690
1000,0.07000
1001,0.07202
1002,0.07404
1003,0.07606
1004,0.07808
1005,0.08010
1006,0.08212
1007,0.08414
1008,0.08616
1009,0.08818
1010,0.09020
1011,0.09222
1012,0.09424
1013,0.09626
1014,0.09828
1015,0.10030
1016,0.10232
1017,0.10434
1018,0.10636
1019,0.10838
1020,0.11040
1021,0.11242
1022,0.11444
1023,0.11646
1024,0.11848
1025,0.12050
1026,0.12252
1027,0.12454
1028,0.12656
1029,0.12858
1030,0.13060
1031,0.13262
1032,0.13464
1033,0.13666
1034,0.13868
1035,0.14070
1036,0.14272
1037,0.14474
1038,0.14676
1039,0.14878
1040,0.15080
1041,0.15282
1042,0.15484
1043,0.15686
1044,0.15888
1045,0.16090
1046,0.16292
1047,0.16494
1048,0.16696
1049,0.16898
1050,0.17100
1051,0.17302
1052,0.17504
1053,0.17706
1054,0.17908
1055,0.18110
1056,0.18312
1057,0.18514
1058,0.18716
1059,0.18918
1060,0.19120
1061,0.19322
1062,0.19524
1063,0.19726
1064,0.19928
1065,0.20130
1066,0.20332
1067,0.20534
1068,0.20736
1069,0.20938
1070,0.21140
1071,0.21342
1072,0.21544
1073,0.21746
1074,0.21948
1075,0.22150
1076,0.22352
1077,0.22554
1078,0.22756
1079,0.22958
1080,0.23160
1081,0.23362
1082,0.23564
1083,0.23766
1084,0.23968
1085,0.24170
1086,0.24372
1087,0.24574
1088,0.24776
1089,0.24978
1090,0.25180
1091,0.25382
1092,0.25584
1093,0.25786
1094,0.25988
1095,0.26190
1096,0.26392
1097,0.26594
1098,0.26796
1099,0.26998
1100,0.27200
1101,0.27402
1102,0.27604
1103,0.27806
1104,0.28008
1105,0.28210
1106,0.28412
1107,0.28614
1108,0.28816
1109,0.29018
1110,0.29220
1111,0.29422
1112,0.29624
1113,0.29826
1114,0.30028
1115,0.30230
1116,0.30432
1117,0.30634
1118,0.30836
1119,0.31038
1120,0.31240
1121,0.31442
1122,0.31644
1123,0.31846
1124,0.32048
1125,0.32250
1126,0.32452
1127,0.32654
1128,0.32856
1129,0.33058
1130,0.33260
1131,0.33462
1132,0.33664
1133,0.33866
1134,0.34068
1135,0.34270
1136,0.34472
1137,0.34674
1138,0.34876
1139,0.35078
1140,0.35280
1141,0.35482
1142,0.35684
1143,0.35886
1144,0.36088
1145,0.36290
1146,0.36492
1147,0.36694
1148,0.36896
1149,0.37098
1150,0.37300
1151,0.37502
1152,0.37704
1153,0.37906
1154,0.38108
1155,0.38310
1156,0.38512
1157,0.38714
1158,0.38916
1159,0.39118
1160,0.39320
1161,0.39522
1162,0.39724
1163,0.39926
1164,0.40128
1165,0.40330
1166,0.40532
1167,0.40734
1168,0.40936
1169,0.41138
1170,0.41340
1171,0.41542
1172,0.41744
1173,0.41946
1174,0.42148
1175,0.42350
1176,0.42552
1177,0.42754
1178,0.42956
1179,0.43158
1180,0.43360
1181,0.43562
1182,0.43764
1183,0.43966
1184,0.44168
1185,0.44370
1186,0.44572
1187,0.44774
1188,0.44976
1189,0.45178
1190,0.45380
1191,0.45582
1192,0.45784
1193,0.45986
1194,0.46188
1195,0.46390
1196,0.46592
1197,0.46794
1198,0.46996
1199,0.47198
1200,0.47400
1201,0.47602
1202,0.47804
1203,0.48006
1204,0.48208
1205,0.48410
1206,0.48612
1207,0.48814
1208,0.49016
1209,0.49218
1210,0.49420
1211,0.49622
1212,0.49824
1213,0.50026
1214,0.50228
1215,0.50430
1216,0.50632
1217,0.50834
1218,0.51036
1219,0.51238
1220,0.51440
1221,0.51642
1222,0.51844
1223,0.52046
1224,0.52248
1225,0.52450
1226,0.52652
1227,0.52854
1228,0.53056
1229,0.53258
1230,0.53460
1231,0.53662
1232,0.53864
1233,0.54066
1234,0.54268
1235,0.54470
1236,0.54672
1237,0.54874
1238,0.55076
1239,0.55278
1240,0.55480
1241,0.55682
1242,0.55884
1243,0.56086
1244,0.56288
1245,0.56490
1246,0.56692
1247,0.56894
1248,0.57096
1249,0.57298
1250,0.57500
1251,0.57702
1252,0.57904
1253,0.58106
1254,0.58308
1255,0.58510
1256,0.58712
1257,0.58914
1258,0.59116
1259,0.59318
1260,0.59520
1261,0.59722
1262,0.59924
1263,0.60126
1264,0.60328
1265,0.60530
1266,0.60732
1267,0.60934
1268,0.61136
1269,0.61338
1270,0.61540
1271,0.61742
1272,0.61944
1273,0.62146
1274,0.62348
1275,0.62550
1276,0.62752
1277,0.62954
1278,0.63156
1279,0.63358
1280,0.63560
1281,0.63762
1282,0.63964
1283,0.64166
1284,0.64368
1285,0.64570
1286,0.64772
1287,0.64974
1288,0.65176
1289,0.65378
1290,0.65580
1291,0.65782
1292,0.65984
1293,0.66186
1294,0.66388
1295,0.66590
1296,0.66792
1297,0.66994
1298,0.67196
1299,0.67398
1300,0.67600
1301,0.67802
1302,0.68004
1303,0.68206
1304,0.68408
1305,0.68610
1306,0.68812
1307,0.69014
1308,0.69216
1309,0.69418
1310,0.69620
1311,0.69822
1312,0.70024
1313,0.70226
1314,0.70428
1315,0.70630
1316,0.70832
1317,0.71034
1318,0.71236
1319,0.71438
1320,0.71640
1321,0.71842
1322,0.72044
1323,0.72246
1324,0.72448
1325,0.72650
1326,0.72852
1327,0.73054
1328,0.73256
1329,0.73458
1330,0.73660
1331,0.73862
1332,0.74064
1333,0.74266
1334,0.74468
1335,0.74670
1336,0.74872
1337,0.75074
1338,0.75276
1339,0.75478
1340,0.75680
1341,0.75882
1342,0.76084
1343,0.76286
1344,0.76488
1345,0.76690
1346,0.76892
1347,0.77094
1348,0.77296
1349,0.77498
1350,0.77700
1351,0.77902
1352,0.78104
1353,0.78306
1354,0.78508
1355,0.78710
1356,0.78912
1357,0.79114
1358,0.79316
1359,0.79518
1360,0.79720
1361,0.79922
1362,0.80124
1363,0.80326
1364,0.80528
1365,0.80730
1366,0.80932
1367,0.81134
1368,0.81336
1369,0.81538
1370,0.81740
1371,0.81942
1372,0.82144
1373,0.82346
1374,0.82548
1375,0.82750
1376,0.82952
1377,0.83154
1378,0.83356
1379,0.83558
1380,0.83760
1381,0.83962
1382,0.84164
1383,0.84366
1384,0.84568
1385,0.84770
1386,0.84972
1387,0.85174
1388,0.85376
1389,0.85578
1390,0.85780
1391,0.85982
1392,0.86184
1393,0.86386
1394,0.86588
1395,0.86790
1396,0.86992
1397,0.87194
1398,0.87396
1399,0.87598
1400,0.87800
1401,0.88002
1402,0.88204
1403,0.88406
1404,0.88608
1405,0.88810
1406,0.89012
1407,0.89214
1408,0.89416
1409,0.89618
1410,0.89820
1411,0.90022
1412,0.90224
1413,0.90426
1414,0.90628
1415,0.90830
1416,0.91032
1417,0.91234
1418,0.91436
1419,0.91638
1420,0.91840
1421,0.92042
1422,0.92244
1423,0.92446
1424,0.92648
1425,0.92850
1426,0.93052
1427,0.93254
1428,0.93456
1429,0.93658
1430,0.93860
1431,0.94062
1432,0.94264
1433,0.94466
1434,0.94668
1435,0.94870
1436,0.95072
1437,0.95274
1438,0.95476
1439,0.95678
1440,0.95880
1441,0.96082
1442,0.96284
1443,0.96486
1444,0.96688
1445,0.96890
1446,0.97092
1447,0.97294
1448,0.97496
1449,0.97698
1450,0.97900
1451,0.98102
1452,0.98304
1453,0.98506
1454,0.98708
1455,0.98910
1456,0.99112
1457,0.99314
1458,0.99516
1459,0.99718
1460,0.99920
1461,1.00122
1462,1.00324
1463,1.00526
1464,1.00728
1465,1.00930
1466,1.01132
1467,1.01334
1468,1.01536
1469,1.01738
1470,1.01940
1471,1.02142
1472,1.02344
1473,1.02546
1474,1.02748
1475,1.02950
1476,1.03152
1477,1.03354
1478,1.03556
1479,1.03758
1480,1.03960
1481,1.04162
1482,1.04364
1483,1.04566
1484,1.04768
1485,1.04970
1486,1.05172
1487,1.05374
1488,1.05576
1489,1.05778
1490,1.05980
1491,1.06182
1492,1.06384
1493,1.06586
1494,1.06788
1495,1.06990
1496,1.07192
1497,1.07394
1498,1.07596
1499,1.07798
1500,1.08000
1501,1.08264
1502,1.08528
1503,1.08792
1504,1.09056
1505,1.09320
1506,1.09584
1507,1.09848
1508,1.10112
1509,1.10376
1510,1.10640
1511,1.10904
1512,1.11168
1513,1.11432
1514,1.11696
1515,1.11960
1516,1.12224
1517,1.12488
1518,1.12752
1519,1.13016
1520,1.13280
1521,1.13544
1522,1.13808
1523,1.14072
1524,1.14336
1525,1.14600
1526,1.14864
1527,1.15128
1528,1.15392
1529,1.15656
1530,1.15920
1531,1.16184
1532,1.16448
1533,1.16712
1534,1.16976
1535,1.17240
1536,1.17504
1537,1.17768
1538,1.18032
1539,1.18296
1540,1.18560
1541,1.18824
1542,1.19088
1543,1.19352
1544,1.19616
1545,1.19880
1546,1.20144
1547,1.20408
1548,1.20672
1549,1.20936
1550,1.21200
1551,1.21464
1552,1.21728
1553,1.21992
1554,1.22256
1555,1.22520
1556,1.22784
1557,1.23048
1558,1.23312
1559,1.23576
1560,1.23840
1561,1.24104
1562,1.24368
1563,1.24632
1564,1.24896
1565,1.25160
1566,1.25424
1567,1.25688
1568,1.25952
1569,1.26216
1570,1.26480
1571,1.26744
1572,1.27008
1573,1.27272
1574,1.27536
1575,1.27800
1576,1.28064
1577,1.28328
1578,1.28592
1579,1.28856
1580,1.29120
1581,1.29384
1582,1.29648
1583,1.29912
1584,1.30176
1585,1.30440
1586,1.30704
1587,1.30968
1588,1.31232
1589,1.31496
1590,1.31760
1591,1.32024
1592,1.32288
1593,1.32552
1594,1.32816
1595,1.33080
1596,1.33344
1597,1.33608
1598,1.33872
1599,1.34136
1600,1.34400
1601,1.34664
1602,1.34928
1603,1.35192
