Frequency (Hz),dB (Relative)
20,15.19000
21,15.20600
22,15.22200
23,15.23800
24,15.25400
25,15.27000
26,15.28600
27,15.30200
28,15.31800
29,15.33400
30,15.35000
31,15.24900
32,15.14800
33,15.04700
34,14.94600
35,14.84500
36,14.74400
37,14.64300
38,14.54200
39,14.44100
40,14.34000
41,14.17700
42,14.01400
43,13.85100
44,13.68800
45,13.52500
46,13.36200
47,13.19900
48,13.03600
49,12.87300
50,12.71000
51,12.56300
52,12.41600
53,12.26900
54,12.12200
55,11.97500
56,11.82800
57,11.68100
58,11.53400
59,11.38700
60,11.24000
61,11.15500
62,11.07000
63,10.98500
64,10.90000
65,10.81500
66,10.73000
67,10.64500
68,10.56000
69,10.47500
70,10.39000
71,10.36600
72,10.34200
73,10.31800
74,10.29400
75,10.27000
76,10.24600
77,10.22200
78,10.19800
79,10.17400
80,10.15000
81,10.12700
82,10.10400
83,10.08100
84,10.05800
85,10.03500
86,10.01200
87,9.98900
88,9.96600
89,9.94300
90,9.92000
91,9.86600
92,9.81200
93,9.75800
94,9.70400
95,9.65000
96,9.59600
97,9.54200
98,9.48800
99,9.43400
100,9.38000
101,9.28380
102,9.18760
103,9.09140
104,8.99520
105,8.89900
106,8.80280
107,8.70660
108,8.61040
109,8.51420
110,8.41800
111,8.32180
112,8.22560
113,8.12940
114,8.03320
115,7.93700
116,7.84080
117,7.74460
118,7.64840
119,7.55220
120,7.45600
121,7.35980
122,7.26360
123,7.16740
124,7.07120
125,6.97500
126,6.87880
127,6.78260
128,6.68640
129,6.59020
130,6.49400
131,6.39780
132,6.30160
133,6.20540
134,6.10920
135,6.01300
136,5.91680
137,5.82060
138,5.72440
139,5.62820
140,5.53200
141,5.43580
142,5.33960
143,5.24340
144,5.14720
145,5.05100
146,4.95480
147,4.85860
148,4.76240
149,4.66620
150,4.57000
151,4.52500
152,4.48000
153,4.43500
154,4.39000
155,4.34500
156,4.30000
157,4.25500
158,4.21000
159,4.16500
160,4.12000
161,4.07500
162,4.03000
163,3.98500
164,3.94000
165,3.89500
166,3.85000
167,3.80500
168,3.76000
169,3.71500
170,3.67000
171,3.62500
172,3.58000
173,3.53500
174,3.49000
175,3.44500
176,3.40000
177,3.35500
178,3.31000
179,3.26500
180,3.22000
181,3.17500
182,3.13000
183,3.08500
184,3.04000
185,2.99500
186,2.95000
187,2.90500
188,2.86000
189,2.81500
190,2.77000
191,2.72500
192,2.68000
193,2.63500
194,2.59000
195,2.54500
196,2.50000
197,2.45500
198,2.41000
199,2.36500
200,2.32000
201,2.28670
202,2.25340
203,2.22010
204,2.18680
205,2.15350
206,2.12020
207,2.08690
208,2.05360
209,2.02030
210,1.98700
211,1.95370
212,1.92040
213,1.88710
214,1.85380
215,1.82050
216,1.78720
217,1.75390
218,1.72060
219,1.68730
220,1.65400
221,1.62070
222,1.58740
223,1.55410
224,1.52080
225,1.48750
226,1.45420
227,1.42090
228,1.38760
229,1.35430
230,1.32100
231,1.28770
232,1.25440
233,1.22110
234,1.18780
235,1.15450
236,1.12120
237,1.08790
238,1.05460
239,1.02130
240,0.98800
241,0.95470
242,0.92140
243,0.88810
244,0.85480
245,0.82150
246,0.78820
247,0.75490
248,0.72160
249,0.68830
250,0.65500
251,0.62170
252,0.58840
253,0.55510
254,0.52180
255,0.48850
256,0.45520
257,0.42190
258,0.38860
259,0.35530
260,0.32200
261,0.28870
262,0.25540
263,0.22210
264,0.18880
265,0.15550
266,0.12220
267,0.08890
268,0.05560
269,0.02230
270,-0.01100
271,-0.04430
272,-0.07760
273,-0.11090
274,-0.14420
275,-0.17750
276,-0.21080
277,-0.24410
278,-0.27740
279,-0.31070
280,-0.34400
281,-0.37730
282,-0.41060
283,-0.44390
284,-0.47720
285,-0.51050
286,-0.54380
287,-0.57710
288,-0.61040
289,-0.64370
290,-0.67700
291,-0.71030
292,-0.74360
293,-0.77690
294,-0.81020
295,-0.84350
296,-0.87680
297,-0.91010
298,-0.94340
299,-0.97670
300,-1.01000
301,-1.02010
302,-1.03020
303,-1.04030
304,-1.05040
305,-1.06050
306,-1.07060
307,-1.08070
308,-1.09080
309,-1.10090
310,-1.11100
311,-1.12110
312,-1.13120
313,-1.14130
314,-1.15140
315,-1.16150
316,-1.17160
317,-1.18170
318,-1.19180
319,-1.20190
320,-1.21200
321,-1.22210
322,-1.23220
323,-1.24230
324,-1.25240
325,-1.26250
326,-1.27260
327,-1.28270
328,-1.29280
329,-1.30290
330,-1.31300
331,-1.32310
332,-1.33320
333,-1.34330
334,-1.35340
335,-1.36350
336,-1.37360
337,-1.38370
338,-1.39380
339,-1.40390
340,-1.41400
341,-1.42410
342,-1.43420
343,-1.44430
344,-1.45440
345,-1.46450
346,-1.47460
347,-1.48470
348,-1.49480
349,-1.50490
350,-1.51500
351,-1.52510
352,-1.53520
353,-1.54530
354,-1.55540
355,-1.56550
356,-1.57560
357,-1.58570
358,-1.59580
359,-1.60590
360,-1.61600
361,-1.62610
362,-1.63620
363,-1.64630
364,-1.65640
365,-1.66650
366,-1.67660
367,-1.68670
368,-1.69680
369,-1.70690
370,-1.71700
371,-1.72710
372,-1.73720
373,-1.74730
374,-1.75740
375,-1.76750
376,-1.77760
377,-1.78770
378,-1.79780
379,-1.80790
380,-1.81800
381,-1.82810
382,-1.83820
383,-1.84830
384,-1.85840
385,-1.86850
386,-1.87860
387,-1.88870
388,-1.89880
389,-1.90890
390,-1.91900
391,-1.92910
392,-1.93920
393,-1.94930
394,-1.95940
395,-1.96950
396,-1.97960
397,-1.98970
398,-1.99980
399,-2.00990
400,-2.02000
401,-2.01380
402,-2.00760
403,-2.00140
404,-1.99520
405,-1.98900
406,-1.98280
407,-1.97660
408,-1.97040
409,-1.96420
410,-1.95800
411,-1.95180
412,-1.94560
413,-1.93940
414,-1.93320
415,-1.92700
416,-1.92080
417,-1.91460
418,-1.90840
419,-1.90220
420,-1.89600
421,-1.88980
422,-1.88360
423,-1.87740
424,-1.87120
425,-1.86500
426,-1.85880
427,-1.85260
428,-1.84640
429,-1.84020
430,-1.83400
431,-1.82780
432,-1.82160
433,-1.81540
434,-1.80920
435,-1.80300
436,-1.79680
437,-1.79060
438,-1.78440
439,-1.77820
440,-1.77200
441,-1.76580
442,-1.75960
443,-1.75340
444,-1.74720
445,-1.74100
446,-1.73480
447,-1.72860
448,-1.72240
449,-1.71620
450,-1.71000
451,-1.70380
452,-1.69760
453,-1.69140
454,-1.68520
455,-1.67900
456,-1.67280
457,-1.66660
458,-1.66040
459,-1.65420
460,-1.64800
461,-1.64180
462,-1.63560
463,-1.62940
464,-1.62320
465,-1.61700
466,-1.61080
467,-1.60460
468,-1.59840
469,-1.59220
470,-1.58600
471,-1.57980
472,-1.57360
473,-1.56740
474,-1.56120
475,-1.55500
476,-1.54880
477,-1.54260
478,-1.53640
479,-1.53020
480,-1.52400
481,-1.51780
482,-1.51160
483,-1.50540
484,-1.49920
485,-1.49300
486,-1.48680
487,-1.48060
488,-1.47440
489,-1.46820
490,-1.46200
491,-1.45580
492,-1.44960
493,-1.44340
494,-1.43720
495,-1.43100
496,-1.42480
497,-1.41860
498,-1.41240
499,-1.40620
500,-1.40000
501,-1.39610
502,-1.39220
503,-1.38830
504,-1.38440
505,-1.38050
506,-1.37660
507,-1.37270
508,-1.36880
509,-1.36490
510,-1.36100
511,-1.35710
512,-1.35320
513,-1.34930
514,-1.34540
515,-1.34150
516,-1.33760
517,-1.33370
518,-1.32980
519,-1.32590
520,-1.32200
521,-1.31810
522,-1.31420
523,-1.31030
524,-1.30640
525,-1.30250
526,-1.29860
527,-1.29470
528,-1.29080
529,-1.28690
530,-1.28300
531,-1.27910
532,-1.27520
533,-1.27130
534,-1.26740
535,-1.26350
536,-1.25960
537,-1.25570
538,-1.25180
539,-1.24790
540,-1.24400
541,-1.24010
542,-1.23620
543,-1.23230
544,-1.22840
545,-1.22450
546,-1.22060
547,-1.21670
548,-1.21280
549,-1.20890
550,-1.20500
551,-1.20110
552,-1.19720
553,-1.19330
554,-1.18940
555,-1.18550
556,-1.18160
557,-1.17770
558,-1.17380
559,-1.16990
560,-1.16600
561,-1.16210
562,-1.15820
563,-1.15430
564,-1.15040
565,-1.14650
566,-1.14260
567,-1.13870
568,-1.13480
569,-1.13090
570,-1.12700
571,-1.12310
572,-1.11920
573,-1.11530
574,-1.11140
575,-1.10750
576,-1.10360
577,-1.09970
578,-1.09580
579,-1.09190
580,-1.08800
581,-1.08410
582,-1.08020
583,-1.07630
584,-1.07240
585,-1.06850
586,-1.06460
587,-1.06070
588,-1.05680
589,-1.05290
590,-1.04900
591,-1.04510
592,-1.04120
593,-1.03730
594,-1.03340
595,-1.02950
596,-1.02560
597,-1.02170
598,-1.01780
599,-1.01390
600,-1.01000
601,-1.00460
602,-0.99920
603,-0.99380
604,-0.98840
605,-0.98300
606,-0.97760
607,-0.97220
608,-0.96680
609,-0.96140
610,-0.95600
611,-0.95060
612,-0.94520
613,-0.93980
614,-0.93440
615,-0.92900
616,-0.92360
617,-0.91820
618,-0.91280
619,-0.90740
620,-0.90200
621,-0.89660
622,-0.89120
623,-0.88580
624,-0.88040
625,-0.87500
626,-0.86960
627,-0.86420
628,-0.85880
629,-0.85340
630,-0.84800
631,-0.84260
632,-0.83720
633,-0.83180
634,-0.82640
635,-0.82100
636,-0.81560
637,-0.81020
638,-0.80480
639,-0.79940
640,-0.79400
641,-0.78860
642,-0.78320
643,-0.77780
644,-0.77240
645,-0.76700
646,-0.76160
647,-0.75620
648,-0.75080
649,-0.74540
650,-0.74000
651,-0.73460
652,-0.72920
653,-0.72380
654,-0.71840
655,-0.71300
656,-0.70760
657,-0.70220
658,-0.69680
659,-0.69140
660,-0.68600
661,-0.68060
662,-0.67520
663,-0.66980
664,-0.66440
665,-0.65900
666,-0.65360
667,-0.64820
668,-0.64280
669,-0.63740
670,-0.63200
671,-0.62660
672,-0.62120
673,-0.61580
674,-0.61040
675,-0.60500
676,-0.59960
677,-0.59420
678,-0.58880
679,-0.58340
680,-0.57800
681,-0.57260
682,-0.56720
683,-0.56180
684,-0.55640
685,-0.55100
686,-0.54560
687,-0.54020
688,-0.53480
689,-0.52940
690,-0.52400
691,-0.51860
692,-0.51320
693,-0.50780
694,-0.50240
695,-0.49700
696,-0.49160
697,-0.48620
698,-0.48080
699,-0.47540
700,-0.47000
701,-0.47160
702,-0.47320
703,-0.47480
704,-0.47640
705,-0.47800
706,-0.47960
707,-0.48120
708,-0.48280
709,-0.48440
710,-0.48600
711,-0.48760
712,-0.48920
713,-0.49080
714,-0.49240
715,-0.49400
716,-0.49560
717,-0.49720
718,-0.49880
719,-0.50040
720,-0.50200
721,-0.50360
722,-0.50520
723,-0.50680
724,-0.50840
725,-0.51000
726,-0.51160
727,-0.51320
728,-0.51480
729,-0.51640
730,-0.51800
731,-0.51960
732,-0.52120
733,-0.52280
734,-0.52440
735,-0.52600
736,-0.52760
737,-0.52920
738,-0.53080
739,-0.53240
740,-0.53400
741,-0.53560
742,-0.53720
743,-0.53880
744,-0.54040
745,-0.54200
746,-0.54360
747,-0.54520
748,-0.54680
749,-0.54840
750,-0.55000
751,-0.55160
752,-0.55320
753,-0.55480
754,-0.55640
755,-0.55800
756,-0.55960
757,-0.56120
758,-0.56280
759,-0.56440
760,-0.56600
761,-0.56760
762,-0.56920
763,-0.57080
764,-0.57240
765,-0.57400
766,-0.57560
767,-0.57720
768,-0.57880
769,-0.58040
770,-0.58200
771,-0.58360
772,-0.58520
773,-0.58680
774,-0.58840
775,-0.59000
776,-0.59160
777,-0.59320
778,-0.59480
779,-0.59640
780,-0.59800
781,-0.59960
782,-0.60120
783,-0.60280
784,-0.60440
785,-0.60600
786,-0.60760
787,-0.60920
788,-0.61080
789,-0.61240
790,-0.61400
791,-0.61560
792,-0.61720
793,-0.61880
794,-0.62040
795,-0.62200
796,-0.62360
797,-0.62520
798,-0.62680
799,-0.62840
800,-0.63000
801,-0.63380
802,-0.63760
803,-0.64140
804,-0.64520
805,-0.64900
806,-0.65280
807,-0.65660
808,-0.66040
809,-0.66420
810,-0.66800
811,-0.67180
812,-0.67560
813,-0.67940
814,-0.68320
815,-0.68700
816,-0.69080
817,-0.69460
818,-0.69840
819,-0.70220
820,-0.70600
821,-0.70980
822,-0.71360
823,-0.71740
824,-0.72120
825,-0.72500
826,-0.72880
827,-0.73260
828,-0.73640
829,-0.74020
830,-0.74400
831,-0.74780
832,-0.75160
833,-0.75540
834,-0.75920
835,-0.76300
836,-0.76680
837,-0.77060
838,-0.77440
839,-0.77820
840,-0.78200
841,-0.78580
842,-0.78960
843,-0.79340
844,-0.79720
845,-0.80100
846,-0.80480
847,-0.80860
848,-0.81240
849,-0.81620
850,-0.82000
851,-0.82380
852,-0.82760
853,-0.83140
854,-0.83520
855,-0.83900
856,-0.84280
857,-0.84660
858,-0.85040
859,-0.85420
860,-0.85800
861,-0.86180
862,-0.86560
863,-0.86940
864,-0.87320
865,-0.87700
866,-0.88080
867,-0.88460
868,-0.88840
869,-0.89220
870,-0.89600
871,-0.89980
872,-0.90360
873,-0.90740
874,-0.91120
875,-0.91500
876,-0.91880
877,-0.92260
878,-0.92640
879,-0.93020
880,-0.93400
881,-0.93780
882,-0.94160
883,-0.94540
884,-0.94920
885,-0.95300
886,-0.95680
887,-0.96060
888,-0.96440
889,-0.96820
890,-0.97200
891,-0.97580
892,-0.97960
893,-0.98340
894,-0.98720
895,-0.99100
896,-0.99480
897,-0.99860
898,-1.00240
899,-1.00620
900,-1.01000
901,-1.01240
902,-1.01480
903,-1.01720
904,-1.01960
905,-1.02200
906,-1.02440
907,-1.02680
908,-1.02920
909,-1.03160
910,-1.03400
911,-1.03640
912,-1.03880
913,-1.04120
914,-1.04360
915,-1.04600
916,-1.04840
917,-1.05080
918,-1.05320
919,-1.05560
920,-1.05800
921,-1.06040
922,-1.06280
923,-1.06520
924,-1.06760
925,-1.07000
926,-1.07240
927,-1.07480
928,-1.07720
929,-1.07960
930,-1.08200
931,-1.08440
932,-1.08680
933,-1.08920
934,-1.09160
935,-1.09400
936,-1.09640
937,-1.09880
938,-1.10120
939,-1.10360
940,-1.10600
941,-1.10840
942,-1.11080
943,-1.11320
944,-1.11560
945,-1.11800
946,-1.12040
947,-1.12280
948,-1.12520
949,-1.12760
950,-1.13000
951,-1.13240
952,-1.13480
953,-1.13720
954,-1.13960
955,-1.14200
956,-1.14440
957,-1.14680
958,-1.14920
959,-1.15160
960,-1.15400
961,-1.15640
962,-1.15880
963,-1.16120
964,-1.16360
965,-1.16600
966,-1.16840
967,-1.17080
968,-1.17320
969,-1.17560
970,-1.17800
971,-1.18040
972,-1.18280
973,-1.18520
974,-1.18760
975,-1.19000
976,-1.19240
977,-1.19480
978,-1.19720
979,-1.19960
980,-1.20200
981,-1.20440
982,-1.20680
983,-1.20920
984,-1.21160
985,-1.21400
986,-1.21640
987,-1.21880
988,-1.22120
989,-1.22360
990,-1.22600
991,-1.22840
992,-1.23080
993,-1.23320
994,-1.23560
995,-1.23800
996,-1.24040
997,-1.24280
998,-1.24520
999,-1.24760
1000,-1.25000
1001,-1.24596
1002,-1.24192
1003,-1.23788
1004,-1.23384
1005,-1.22980
1006,-1.22576
1007,-1.22172
1008,-1.21768
1009,-1.21364
1010,-1.20960
1011,-1.20556
1012,-1.20152
1013,-1.19748
1014,-1.19344
1015,-1.18940
1016,-1.18536
1017,-1.18132
1018,-1.17728
1019,-1.17324
1020,-1.16920
1021,-1.16516
1022,-1.16112
1023,-1.15708
1024,-1.15304
1025,-1.14900
1026,-1.14496
1027,-1.14092
1028,-1.13688
1029,-1.13284
1030,-1.12880
1031,-1.12476
1032,-1.12072
1033,-1.11668
1034,-1.11264
1035,-1.10860
1036,-1.10456
1037,-1.10052
1038,-1.09648
1039,-1.09244
1040,-1.08840
1041,-1.08436
1042,-1.08032
1043,-1.07628
1044,-1.07224
1045,-1.06820
1046,-1.06416
1047,-1.06012
1048,-1.05608
1049,-1.05204
1050,-1.04800
1051,-1.04396
1052,-1.03992
1053,-1.03588
1054,-1.03184
1055,-1.02780
1056,-1.02376
1057,-1.01972
1058,-1.01568
1059,-1.01164
1060,-1.00760
1061,-1.00356
1062,-0.99952
1063,-0.99548
1064,-0.99144
1065,-0.98740
1066,-0.98336
1067,-0.97932
1068,-0.97528
1069,-0.97124
1070,-0.96720
1071,-0.96316
1072,-0.95912
1073,-0.95508
1074,-0.95104
1075,-0.94700
1076,-0.94296
1077,-0.93892
1078,-0.93488
1079,-0.93084
1080,-0.92680
1081,-0.92276
1082,-0.91872
1083,-0.91468
1084,-0.91064
1085,-0.90660
1086,-0.90256
1087,-0.89852
1088,-0.89448
1089,-0.89044
1090,-0.88640
1091,-0.88236
1092,-0.87832
1093,-0.87428
1094,-0.87024
1095,-0.86620
1096,-0.86216
1097,-0.85812
1098,-0.85408
1099,-0.85004
1100,-0.84600
1101,-0.84196
1102,-0.83792
1103,-0.83388
1104,-0.82984
1105,-0.82580
1106,-0.82176
1107,-0.81772
1108,-0.81368
1109,-0.80964
1110,-0.80560
1111,-0.80156
1112,-0.79752
1113,-0.79348
1114,-0.78944
1115,-0.78540
1116,-0.78136
1117,-0.77732
1118,-0.77328
1119,-0.76924
1120,-0.76520
1121,-0.76116
1122,-0.75712
1123,-0.75308
1124,-0.74904
1125,-0.74500
1126,-0.74096
1127,-0.73692
1128,-0.73288
1129,-0.72884
1130,-0.72480
1131,-0.72076
1132,-0.71672
1133,-0.71268
1134,-0.70864
1135,-0.70460
1136,-0.70056
1137,-0.69652
1138,-0.69248
1139,-0.68844
1140,-0.68440
1141,-0.68036
1142,-0.67632
1143,-0.67228
1144,-0.66824
1145,-0.66420
1146,-0.66016
1147,-0.65612
1148,-0.65208
1149,-0.64804
1150,-0.64400
1151,-0.63996
1152,-0.63592
1153,-0.63188
1154,-0.62784
1155,-0.62380
1156,-0.61976
1157,-0.61572
1158,-0.61168
1159,-0.60764
1160,-0.60360
1161,-0.59956
1162,-0.59552
1163,-0.59148
1164,-0.58744
1165,-0.58340
1166,-0.57936
1167,-0.57532
1168,-0.57128
1169,-0.56724
1170,-0.56320
1171,-0.55916
1172,-0.55512
1173,-0.55108
1174,-0.54704
1175,-0.54300
1176,-0.53896
1177,-0.53492
1178,-0.53088
1179,-0.52684
1180,-0.52280
1181,-0.51876
1182,-0.51472
1183,-0.51068
1184,-0.50664
1185,-0.50260
1186,-0.49856
1187,-0.49452
1188,-0.49048
1189,-0.48644
1190,-0.48240
1191,-0.47836
1192,-0.47432
1193,-0.47028
1194,-0.46624
1195,-0.46220
1196,-0.45816
1197,-0.45412
1198,-0.45008
1199,-0.44604
1200,-0.44200
1201,-0.43796
1202,-0.43392
1203,-0.42988
1204,-0.42584
1205,-0.42180
1206,-0.41776
1207,-0.41372
1208,-0.40968
1209,-0.40564
1210,-0.40160
1211,-0.39756
1212,-0.39352
1213,-0.38948
1214,-0.38544
1215,-0.38140
1216,-0.37736
1217,-0.37332
1218,-0.36928
1219,-0.36524
1220,-0.36120
1221,-0.35716
1222,-0.35312
1223,-0.34908
1224,-0.34504
1225,-0.34100
1226,-0.33696
1227,-0.33292
1228,-0.32888
1229,-0.32484
1230,-0.32080
1231,-0.31676
1232,-0.31272
1233,-0.30868
1234,-0.30464
1235,-0.30060
1236,-0.29656
1237,-0.29252
1238,-0.28848
1239,-0.28444
1240,-0.28040
1241,-0.27636
1242,-0.27232
1243,-0.26828
1244,-0.26424
1245,-0.26020
1246,-0.25616
1247,-0.25212
1248,-0.24808
1249,-0.24404
1250,-0.24000
1251,-0.23596
1252,-0.23192
1253,-0.22788
1254,-0.22384
1255,-0.21980
1256,-0.21576
1257,-0.21172
1258,-0.20768
1259,-0.20364
1260,-0.19960
1261,-0.19556
1262,-0.19152
1263,-0.18748
1264,-0.18344
1265,-0.17940
1266,-0.17536
1267,-0.17132
1268,-0.16728
1269,-0.16324
1270,-0.15920
1271,-0.15516
1272,-0.15112
1273,-0.14708
1274,-0.14304
1275,-0.13900
1276,-0.13496
1277,-0.13092
1278,-0.12688
1279,-0.12284
1280,-0.11880
1281,-0.11476
1282,-0.11072
1283,-0.10668
1284,-0.10264
1285,-0.09860
1286,-0.09456
1287,-0.09052
1288,-0.08648
1289,-0.08244
1290,-0.07840
1291,-0.07436
1292,-0.07032
1293,-0.06628
1294,-0.06224
1295,-0.05820
1296,-0.05416
1297,-0.05012
1298,-0.04608
1299,-0.04204
1300,-0.03800
1301,-0.03396
1302,-0.02992
1303,-0.02588
1304,-0.02184
1305,-0.01780
1306,-0.01376
1307,-0.00972
1308,-0.00568
1309,-0.00164
1310,0.00240
1311,0.00644
1312,0.01048
1313,0.01452
1314,0.01856
1315,0.02260
1316,0.02664
1317,0.03068
1318,0.03472
1319,0.03876
1320,0.04280
1321,0.04684
1322,0.05088
1323,0.05492
1324,0.05896
1325,0.06300
1326,0.06704
1327,0.07108
1328,0.07512
1329,0.07916
1330,0.08320
1331,0.08724
1332,0.09128
1333,0.09532
1334,0.09936
1335,0.10340
1336,0.10744
1337,0.11148
1338,0.11552
1339,0.11956
1340,0.12360
1341,0.12764
1342,0.13168
1343,0.13572
1344,0.13976
1345,0.14380
1346,0.14784
1347,0.15188
1348,0.15592
1349,0.15996
1350,0.16400
1351,0.16804
1352,0.17208
1353,0.17612
1354,0.18016
1355,0.18420
1356,0.18824
1357,0.19228
1358,0.19632
1359,0.20036
1360,0.20440
1361,0.20844
1362,0.21248
1363,0.21652
1364,0.22056
1365,0.22460
1366,0.22864
1367,0.23268
1368,0.23672
1369,0.24076
1370,0.24480
1371,0.24884
1372,0.25288
1373,0.25692
1374,0.26096
1375,0.26500
1376,0.26904
1377,0.27308
1378,0.27712
1379,0.28116
1380,0.28520
1381,0.28924
1382,0.29328
1383,0.29732
1384,0.30136
1385,0.30540
1386,0.30944
1387,0.31348
1388,0.31752
1389,0.32156
1390,0.32560
1391,0.32964
1392,0.33368
1393,0.33772
1394,0.34176
1395,0.34580
1396,0.34984
1397,0.35388
1398,0.35792
1399,0.36196
1400,0.36600
1401,0.37004
1402,0.37408
1403,0.37812
1404,0.38216
1405,0.38620
1406,0.39024
1407,0.39428
1408,0.39832
1409,0.40236
1410,0.40640
1411,0.41044
1412,0.41448
1413,0.41852
1414,0.42256
1415,0.42660
1416,0.43064
1417,0.43468
1418,0.43872
1419,0.44276
1420,0.44680
1421,0.45084
1422,0.45488
1423,0.45892
1424,0.46296
1425,0.46700
1426,0.47104
1427,0.47508
1428,0.47912
1429,0.48316
1430,0.48720
1431,0.49124
1432,0.49528
1433,0.49932
1434,0.50336
1435,0.50740
1436,0.51144
1437,0.51548
1438,0.51952
1439,0.52356
1440,0.52760
1441,0.53164
1442,0.53568
1443,0.53972
1444,0.54376
1445,0.54780
1446,0.55184
1447,0.55588
1448,0.55992
1449,0.56396
1450,0.56800
1451,0.57204
1452,0.57608
1453,0.58012
1454,0.58416
1455,0.58820
1456,0.59224
1457,0.59628
1458,0.60032
1459,0.60436
1460,0.60840
1461,0.61244
1462,0.61648
1463,0.62052
1464,0.62456
1465,0.62860
1466,0.63264
1467,0.63668
1468,0.64072
1469,0.64476
1470,0.64880
1471,0.65284
1472,0.65688
1473,0.66092
1474,0.66496
1475,0.66900
1476,0.67304
1477,0.67708
1478,0.68112
1479,0.68516
1480,0.68920
1481,0.69324
1482,0.69728
1483,0.70132
1484,0.70536
1485,0.70940
1486,0.71344
1487,0.71748
1488,0.72152
1489,0.72556
1490,0.72960
1491,0.73364
1492,0.73768
1493,0.74172
1494,0.74576
1495,0.74980
1496,0.75384
1497,0.75788
1498,0.76192
1499,0.76596
1500,0.77000
1501,0.77512
1502,0.78024
1503,0.78536
1504,0.79048
1505,0.79560
1506,0.80072
1507,0.80584
1508,0.81096
1509,0.81608
1510,0.82120
1511,0.82632
1512,0.83144
1513,0.83656
1514,0.84168
1515,0.84680
1516,0.85192
1517,0.85704
1518,0.86216
1519,0.86728
1520,0.87240
1521,0.87752
1522,0.88264
1523,0.88776
1524,0.89288
1525,0.89800
1526,0.90312
1527,0.90824
1528,0.91336
1529,0.91848
1530,0.92360
1531,0.92872
1532,0.93384
1533,0.93896
1534,0.94408
1535,0.94920
1536,0.95432
1537,0.95944
1538,0.96456
1539,0.96968
1540,0.97480
1541,0.97992
1542,0.98504
1543,0.99016
1544,0.99528
1545,1.00040
1546,1.00552
1547,1.01064
1548,1.01576
1549,1.02088
1550,1.02600
1551,1.03112
